-559241
-475354
-55924
0
-139810
-195734
-251658
-419430
-699051
-699051
-838861
-559241
-111848
27962
55924
0
-335544
-587203
-615165
-559241
-447392
-419430
-195734
55924
111848
-139810
-335544
-978671
-782937
-559241
-559241
-251658
-83886
-27962
-55924
-55924
-475354
-587203
-671089
-838861
-727013
-251658
-55924
-55924
-195734
-447392
-475354
-447392
-671089
-782937
-615165
-223696
0
0
-55924
-223696
-447392
-671089
-782937
-615165
-615165
-363506
-251658
-307582
-195734
-167772
-531279
-615165
-699051
-727013
-699051
-279620
-83886
27962
-55924
-279620
-559241
-503316
-671089
-671089
-475354
-83886
251658
307582
0
-195734
-335544
-419430
-810899
-419430
-279620
83886
195734
139810
83886
83886
-307582
-391468
-195734
-307582
-111848
335544
419430
335544
-55924
-83886
-335544
-447392
-643127
-643127
-363506
83886
83886
139810
-139810
-279620
-531279
-838861
-782937
-671089
-419430
-335544
-363506
-55924
-111848
-363506
-671089
-866823
-950709
-838861
-643127
-279620
-279620
-223696
-223696
-391468
-699051
-782937
-754975
-699051
-615165
-447392
-111848
-55924
-251658
-363506
-754975
-1034595
-1034595
-1006633
-531279
-391468
-307582
-279620
-279620
-531279
-838861
-922747
-922747
-922747
-754975
-866823
-475354
-363506
-167772
-27962
-111848
111848
559241
1118481
1677722
2404734
3159709
3774874
4194304
3886722
3607101
3271557
2908051
2320848
1873456
1761608
1062557
335544
-699051
-1454025
-1565873
-1398101
-1118481
-1034595
-810899
-279620
-111848
-167772
-167772
-251658
-503316
-699051
-587203
-671089
-279620
-167772
-111848
-139810
-27962
-447392
-363506
-503316
-391468
-587203
-447392
-139810
-27962
-195734
-195734
-503316
-587203
-810899
-615165
-363506
-27962
167772
-83886
83886
55924
-335544
-419430
-531279
-447392
-419430
251658
335544
307582
-27962
-83886
-195734
-335544
-335544
-279620
-83886
-83886
139810
251658
223696
111848
-83886
-167772
55924
-279620
-531279
55924
447392
531279
447392
335544
0
-55924
-83886
-27962
223696
503316
615165
782937
587203
559241
531279
335544
307582
419430
531279
894785
1258291
1258291
1202367
1202367
782937
643127
671089
699051
1006633
1370139
1398101
1565873
1426063
1202367
1006633
894785
922747
1062557
1314215
1593836
1705684
1509949
1426063
1146443
978671
950709
643127
810899
1090519
1118481
1230329
1202367
810899
671089
503316
475354
223696
167772
251658
475354
503316
782937
587203
167772
-139810
-307582
-195734
-195734
-27962
167772
195734
111848
0
-279620
-447392
-643127
-559241
-643127
-279620
-55924
-55924
-27962
-83886
-307582
-531279
-671089
-643127
-503316
-139810
-27962
-111848
-167772
-139810
-391468
-587203
-699051
-699051
-559241
0
111848
-279620
-363506
-55924
-391468
-503316
-699051
-671089
-475354
-167772
-27962
55924
-83886
-139810
-391468
-475354
-587203
-503316
-559241
-223696
111848
167772
83886
-167772
-643127
-643127
-643127
-391468
-363506
-55924
83886
-27962
139810
-167772
-671089
-754975
-615165
-391468
-419430
-55924
27962
0
55924
0
-307582
-503316
-447392
-447392
-587203
-55924
-139810
-55924
-83886
-83886
-531279
-643127
-615165
-503316
-363506
-83886
-27962
-83886
-111848
-195734
-475354
-671089
-587203
-615165
-531279
-195734
-139810
-55924
-111848
-335544
-559241
-782937
-810899
-447392
-447392
-195734
-83886
0
-111848
-419430
-643127
-615165
-671089
-531279
-363506
-27962
27962
-27962
-335544
-447392
-559241
-531279
-754975
-727013
-475354
-139810
-83886
0
-167772
-503316
-838861
-754975
-643127
-643127
-559241
-167772
-27962
-195734
-279620
-335544
-419430
-754975
-810899
-615165
-419430
-167772
-111848
-391468
-307582
-503316
-671089
-754975
-643127
-643127
-279620
-643127
-167772
-27962
-195734
-531279
-699051
-754975
-643127
-587203
-363506
-83886
-167772
-335544
-391468
-531279
-531279
-727013
-643127
-419430
-83886
-55924
-27962
27962
0
-363506
-615165
-727013
-475354
-419430
-27962
223696
307582
27962
-363506
-307582
-587203
-587203
-363506
-279620
55924
139810
251658
251658
111848
-195734
-279620
-363506
-279620
-335544
-27962
111848
27962
-83886
-55924
-391468
-559241
-1034595
-699051
-559241
-223696
-27962
-111848
-167772
-195734
-587203
-671089
-727013
-922747
-922747
-363506
-83886
-27962
-307582
-279620
-754975
-838861
-754975
-782937
-671089
-167772
-167772
-363506
-475354
-363506
-782937
-810899
-866823
-922747
-559241
-363506
-363506
-279620
-251658
-363506
-754975
-1118481
-1062557
-838861
-866823
-391468
-391468
-391468
-475354
-810899
-838861
-727013
-447392
27962
363506
1118481
1705684
1957342
2488620
3159709
3607101
3802836
3718950
3607101
3439329
3327481
2824165
2376772
1677722
671089
-335544
-978671
-1314215
-1370139
-1062557
-922747
-559241
-363506
-391468
-503316
-419430
-587203
-643127
-671089
-475354
-335544
-27962
-195734
-223696
-335544
-391468
-447392
-671089
-894785
-475354
27962
-139810
55924
0
-279620
-531279
-587203
-587203
-531279
-111848
27962
111848
111848
55924
-251658
-475354
-447392
-503316
-671089
-167772
-27962
139810
-195734
0
-195734
-475354
-531279
-419430
-251658
83886
195734
335544
307582
27962
-279620
-307582
-167772
-167772
-167772
391468
363506
447392
363506
391468
83886
-27962
-279620
-279620
55924
531279
419430
587203
475354
587203
167772
83886
139810
167772
391468
810899
894785
978671
810899
866823
727013
475354
419430
643127
922747
1314215
1342177
1481987
1342177
1174405
1034595
894785
866823
1118481
1202367
1454025
1621798
1621798
1649760
1481987
978671
978671
922747
978671
1006633
1314215
1426063
1370139
1202367
1034595
559241
503316
335544
335544
419430
727013
727013
643127
447392
307582
-111848
-223696
-195734
-195734
-55924
223696
279620
195734
55924
-27962
-419430
-559241
-559241
-531279
-363506
-55924
0
-27962
-83886
-279620
-559241
-671089
-615165
-615165
-447392
-223696
-447392
-251658
-223696
-223696
-419430
-727013
-782937
-615165
-391468
-251658
-139810
-55924
-83886
-307582
-447392
-475354
-782937
-643127
-363506
-83886
0
111848
-111848
-727013
-894785
-699051
-643127
-615165
-139810
55924
55924
55924
0
-307582
-475354
-587203
-559241
-531279
-223696
111848
-195734
-139810
-27962
-335544
-559241
-615165
-475354
-559241
-251658
-55924
111848
55924
-27962
-335544
-503316
-531279
-475354
-279620
-55924
-643127
-307582
139810
27962
-391468
-699051
-643127
-559241
-615165
-251658
-83886
139810
27962
-167772
-419430
-615165
-699051
-643127
-587203
-335544
0
0
-27962
-195734
-643127
-727013
-754975
-727013
-671089
-167772
-111848
-111848
-167772
-223696
-671089
-727013
-699051
-727013
-503316
-251658
-139810
-27962
-83886
-335544
-727013
-754975
-699051
-727013
-587203
-139810
-195734
-335544
-251658
-251658
-587203
-671089
-754975
-671089
-699051
-307582
-195734
-111848
-335544
-391468
-559241
-810899
-699051
-671089
-559241
-111848
-195734
-251658
-279620
-559241
-838861
-671089
-699051
-922747
-587203
-251658
-139810
-83886
-55924
-167772
-503316
-643127
-810899
-615165
-419430
27962
167772
0
-83886
-223696
-503316
-531279
-615165
-559241
111848
139810
-139810
-27962
-55924
-251658
-475354
-615165
-475354
-335544
-55924
55924
279620
223696
83886
-139810
-223696
-419430
-475354
-531279
-223696
-83886
-27962
-27962
-111848
-447392
-671089
-782937
-782937
-754975
-447392
-195734
-167772
-223696
-251658
-643127
-782937
-810899
-699051
-531279
-531279
-251658
-419430
-447392
-391468
-838861
-866823
-922747
-699051
-699051
-363506
-391468
-223696
-223696
-279620
-727013
-922747
-754975
-643127
-922747
-671089
-335544
-83886
-167772
-335544
-782937
-866823
-1062557
-922747
-950709
-559241
-531279
-531279
-391468
-279620
-279620
-363506
-503316
251658
922747
1537911
2181038
2963975
3663025
4082456
3830798
3718950
3579139
3215633
2628431
2460658
2013266
1342177
475354
-251658
-1062557
-1481987
-1537911
-1342177
-1006633
-531279
-335544
-335544
-55924
-139810
-503316
-587203
-671089
-671089
-503316
-167772
-111848
27962
-279620
-531279
-531279
-782937
-643127
-559241
-447392
-27962
83886
111848
-167772
-223696
-363506
-727013
-727013
-503316
-447392
-27962
223696
139810
83886
-139810
-475354
-447392
-447392
-335544
-195734
111848
279620
223696
111848
-55924
-363506
-335544
-335544
-475354
-251658
139810
335544
223696
0
-27962
-139810
-279620
-223696
-139810
279620
419430
503316
531279
363506
195734
55924
27962
55924
55924
307582
475354
671089
838861
727013
307582
55924
195734
223696
363506
754975
1006633
1174405
1230329
1118481
699051
531279
838861
922747
1006633
1202367
1258291
1286253
1398101
1565873
1202367
922747
978671
1062557
1174405
1481987
1537911
1398101
1370139
1454025
1230329
1034595
866823
754975
866823
1118481
1090519
1146443
1062557
1006633
559241
419430
223696
139810
55924
447392
643127
643127
503316
195734
-83886
-139810
-307582
-307582
-251658
0
139810
195734
111848
-83886
-363506
-391468
-475354
-615165
-475354
-27962
111848
111848
-167772
-279620
-559241
-615165
-615165
-475354
-475354
-223696
55924
111848
-195734
-335544
-531279
-615165
-587203
-587203
-559241
-167772
55924
307582
111848
-307582
-950709
-615165
-447392
-391468
-503316
-195734
139810
167772
55924
55924
-363506
-643127
-810899
-587203
-167772
111848
167772
279620
223696
55924
-111848
-727013
-615165
-503316
-251658
-27962
55924
55924
111848
-111848
-363506
-503316
-615165
-754975
-615165
83886
279620
55924
83886
-251658
-447392
-503316
-503316
-391468
-167772
-55924
-139810
55924
55924
-223696
-335544
-419430
-503316
-699051
-335544
-83886
-55924
-83886
-55924
-251658
-503316
-615165
-419430
-475354
-307582
-27962
139810
-251658
-167772
-279620
-643127
-754975
-587203
-503316
-195734
-27962
-55924
-223696
-167772
-391468
-782937
-782937
-559241
-587203
-279620
-251658
55924
0
-139810
-447392
-559241
-587203
-699051
-615165
-279620
-139810
55924
167772
27962
-363506
-419430
-559241
-671089
-531279
-111848
55924
111848
447392
-167772
-307582
-475354
-503316
-643127
-503316
-27962
335544
419430
251658
279620
-111848
-335544
-447392
-139810
-139810
223696
251658
335544
223696
27962
-279620
-447392
-587203
-587203
-419430
83886
27962
-139810
-279620
-167772
-559241
-810899
-671089
-615165
-587203
-223696
-167772
-27962
-111848
-251658
-615165
-782937
-782937
-615165
-671089
-307582
-167772
-223696
-279620
-251658
-643127
-699051
-559241
-782937
-503316
-139810
55924
0
-447392
-615165
-1006633
-1062557
-1062557
-727013
-503316
-83886
0
-55924
-251658
-559241
-782937
-810899
-922747
-894785
-587203
-503316
-391468
-279620
-83886
139810
251658
251658
810899
1174405
1705684
2740279
3579139
3858760
3635063
3243595
2544544
2209000
1817532
1677722
1565873
1006633
223696
-475354
-866823
-1230329
-1314215
-1398101
-1230329
-978671
-475354
-223696
55924
-139810
-335544
-531279
-531279
-754975
-615165
-475354
-279620
27962
-111848
-55924
-55924
-391468
-559241
-447392
-503316
-950709
-363506
83886
-55924
139810
223696
-55924
-643127
-503316
-279620
-223696
-83886
27962
83886
55924
167772
-195734
-307582
-531279
-503316
-363506
111848
195734
27962
111848
335544
-167772
-167772
-251658
-167772
-55924
195734
-307582
27962
307582
111848
-27962
-251658
-251658
27962
-111848
335544
447392
643127
587203
531279
223696
83886
0
27962
-27962
419430
503316
587203
699051
699051
447392
307582
-27962
447392
699051
810899
950709
950709
950709
1062557
1006633
1006633
195734
475354
1006633
1314215
1398101
1454025
1174405
1258291
1146443
922747
978671
894785
950709
1286253
1286253
1426063
1370139
894785
894785
671089
782937
810899
671089
1062557
559241
727013
671089
503316
83886
83886
139810
195734
167772
195734
587203
475354
447392
55924
-251658
-279620
-363506
-363506
-83886
223696
307582
0
-55924
-475354
-391468
-699051
-503316
-615165
-279620
-167772
-83886
-55924
55924
-419430
-838861
-587203
-671089
-754975
-503316
-55924
55924
55924
0
-251658
-503316
-615165
-559241
-587203
-167772
83886
167772
-27962
-167772
-559241
-587203
-503316
-1006633
-699051
-55924
83886
83886
55924
-111848
-391468
-503316
-363506
-810899
-643127
-83886
-279620
27962
83886
-55924
-363506
-503316
-615165
-363506
-419430
-167772
-55924
55924
-27962
55924
-195734
-475354
-643127
-531279
-754975
-419430
0
83886
55924
-27962
-391468
-419430
-503316
-531279
-419430
-83886
251658
111848
-363506
-279620
-587203
-615165
-699051
-643127
-559241
55924
55924
55924
-195734
-83886
-559241
-810899
-782937
-838861
-782937
-55924
-27962
139810
83886
-139810
-782937
-671089
-503316
-615165
-475354
-279620
-55924
167772
83886
27962
-503316
-782937
-754975
-531279
-615165
-195734
111848
139810
-111848
-55924
-419430
-447392
-475354
-419430
-363506
111848
-111848
-83886
111848
167772
-83886
-195734
-223696
-251658
-27962
223696
419430
195734
195734
27962
-335544
-419430
-503316
-503316
-195734
-27962
83886
55924
-559241
-810899
-503316
-643127
-866823
-810899
-559241
27962
-111848
-167772
-167772
-615165
-838861
-838861
-1006633
-699051
-419430
-111848
-83886
-83886
-111848
-307582
-782937
-1258291
-838861
-615165
-447392
-363506
-307582
-279620
-167772
-643127
-810899
-782937
-727013
-782937
-307582
-447392
-139810
-195734
-699051
-671089
-810899
-838861
-838861
-838861
-587203
-307582
-391468
-643127
-503316
-727013
-419430
-167772
167772
419430
1146443
1649760
2153076
2488620
2936013
2572506
2516582
2292886
2069190
1957342
1901418
1342177
1174405
475354
-139810
-978671
-1258291
-1509949
-1509949
-1314215
-782937
-391468
-195734
-335544
-167772
-615165
-587203
-559241
-475354
-531279
-335544
-167772
-139810
-195734
-27962
-195734
-810899
-866823
-754975
-419430
-111848
83886
-83886
-195734
-83886
-447392
-587203
-615165
-615165
-531279
139810
223696
251658
-55924
-27962
-559241
-391468
-475354
-335544
-447392
-27962
195734
279620
55924
-195734
-531279
-447392
-531279
-251658
-195734
167772
335544
139810
167772
83886
-391468
-475354
-195734
-111848
-111848
111848
531279
615165
391468
111848
-27962
-83886
-27962
27962
251658
559241
475354
559241
754975
419430
0
139810
-27962
279620
587203
894785
978671
1062557
950709
838861
643127
587203
447392
754975
1174405
1370139
1286253
1258291
1230329
810899
838861
950709
922747
782937
1174405
1258291
1174405
1034595
1202367
1034595
838861
671089
643127
699051
866823
866823
810899
782937
782937
559241
195734
27962
-111848
27962
447392
531279
559241
419430
335544
-111848
-335544
-307582
-419430
-335544
-335544
-55924
-195734
-55924
83886
-447392
-615165
-894785
-643127
-615165
-223696
-27962
-83886
-111848
-83886
-419430
-699051
-866823
-866823
-699051
-167772
-167772
-363506
-111848
27962
-587203
-643127
-559241
-503316
-559241
-503316
-83886
-223696
-139810
-363506
-615165
-587203
-699051
-671089
-447392
-447392
-279620
83886
0
0
-671089
-727013
-615165
-727013
-643127
27962
-27962
-279620
-27962
-27962
-559241
-615165
-559241
-643127
-447392
55924
-223696
55924
139810
-55924
-782937
-810899
-559241
-587203
-587203
-27962
83886
55924
-223696
-475354
-503316
-615165
-643127
-754975
-531279
-223696
-55924
-223696
-363506
-475354
-671089
-671089
-643127
-475354
-335544
-111848
-27962
-111848
-55924
-307582
-615165
-671089
-671089
-699051
-727013
-279620
-83886
27962
-139810
-531279
-754975
-782937
-810899
-671089
-391468
-223696
27962
-111848
27962
-419430
-950709
-754975
-699051
-419430
-111848
83886
0
-139810
0
-223696
-503316
-559241
-559241
-391468
-251658
27962
279620
223696
391468
-307582
-866823
-531279
-419430
-363506
-195734
139810
167772
-83886
-503316
-643127
-587203
-643127
-810899
-754975
-307582
-195734
-195734
-307582
-335544
-587203
-643127
-810899
-782937
-643127
-223696
-279620
-223696
-251658
-335544
-671089
-754975
-838861
-866823
-950709
-363506
-727013
-307582
-279620
-531279
-978671
-922747
-782937
-866823
-754975
-475354
-475354
-251658
-335544
-391468
-754975
-922747
-1006633
-866823
-810899
-531279
-503316
-335544
-279620
-615165
-894785
-950709
-1062557
-1230329
-1006633
-699051
-391468
-27962
139810
419430
195734
391468
810899
1062557
1537911
2852127
3523215
3718950
3579139
3383405
2628431
2181038
1733646
1230329
866823
335544
83886
-671089
-950709
-950709
-1202367
-1286253
-1202367
-978671
-782937
-307582
-167772
0
-139810
-559241
-727013
-810899
-699051
-754975
-643127
-503316
-335544
-27962
-27962
-251658
-754975
-838861
-727013
-810899
-475354
-251658
-251658
-83886
-55924
-251658
-531279
-727013
-671089
-587203
-251658
0
-55924
-111848
-139810
-279620
-419430
-587203
-671089
-671089
-335544
-167772
27962
-55924
55924
-139810
-251658
-447392
-531279
-475354
27962
83886
55924
83886
-167772
-391468
-335544
-363506
-251658
-279620
-83886
279620
335544
363506
279620
0
-111848
-167772
-279620
-279620
335544
559241
587203
475354
559241
251658
139810
139810
139810
419430
754975
1090519
727013
922747
1034595
671089
503316
531279
475354
671089
1034595
1230329
1370139
1174405
1118481
894785
754975
727013
643127
615165
894785
1006633
1034595
1146443
950709
671089
335544
363506
279620
391468
782937
754975
671089
447392
503316
-83886
-307582
-391468
-111848
-531279
-55924
251658
279620
139810
-223696
-531279
-643127
-671089
-419430
-447392
-195734
-251658
-139810
-447392
-335544
-615165
-727013
-754975
-727013
-838861
-335544
-111848
-111848
-307582
-363506
-671089
-727013
-671089
-866823
-699051
-279620
-55924
-307582
-279620
-447392
-643127
-782937
-978671
-1006633
-615165
-251658
-167772
-363506
-531279
-475354
-671089
-810899
-727013
-559241
-531279
-503316
-307582
-167772
-139810
-251658
-727013
-810899
-922747
-671089
-363506
-55924
-83886
-223696
-223696
-335544
-503316
-531279
-559241
-587203
-671089
-167772
0
-195734
-111848
-363506
-671089
-754975
-615165
-587203
-307582
-279620
-307582
-195734
-195734
-475354
-671089
-671089
-754975
-810899
-307582
-419430
-419430
-111848
-111848
-671089
-699051
-615165
-559241
-475354
-279620
-27962
-83886
-363506
-279620
-643127
-643127
-810899
-699051
-1034595
-754975
-419430
-251658
-139810
-223696
-615165
-615165
-615165
-699051
-838861
-391468
-55924
-391468
-391468
-335544
-810899
-950709
-950709
-754975
-559241
-251658
83886
111848
-55924
-111848
-475354
-559241
-587203
-447392
-559241
-279620
-111848
-139810
-223696
-139810
-559241
-866823
-950709
-559241
-335544
83886
279620
195734
-27962
-279620
-615165
-391468
-391468
-503316
-335544
111848
251658
83886
-223696
-363506
-727013
-810899
-727013
-699051
-531279
-223696
-195734
-139810
-167772
-307582
-643127
-950709
-922747
-754975
-782937
-587203
-419430
-139810
-195734
-419430
-810899
-754975
-894785
-1118481
-950709
-559241
-307582
-419430
-391468
-475354
-978671
-1062557
-950709
-727013
-615165
-251658
-391468
-279620
-531279
-559241
-810899
-782937
-978671
-922747
-838861
-419430
-307582
-559241
-503316
-866823
-1090519
-1062557
-1006633
-1230329
-1034595
-503316
-307582
-83886
195734
167772
391468
699051
1118481
1342177
1817532
3019899
3886722
3858760
3718950
3131747
2712317
2320848
1817532
1370139
1062557
671089
139810
-531279
-866823
-1090519
-1118481
-1062557
-838861
-643127
-475354
-167772
-251658
-111848
-55924
-503316
-615165
-838861
-922747
-727013
-363506
-279620
-195734
-167772
-111848
-475354
-615165
-587203
-615165
-363506
-195734
-223696
-83886
-27962
-167772
